# m_chi (MeV), na64_cur, na64_fut, LDMX_I, LDMX_II
1.000000000000000000e+01 5.192833571544453703e-07 2.907668900636111456e-08 3.618021258250707507e-09 1.971591389701852003e-10
1.003461582929994833e+01 5.192769121175622936e-07 2.907632815898300905e-08 3.617949639928285872e-09 1.971554380007655661e-10
1.006935148416370929e+01 5.192704223890693502e-07 2.907596480939172641e-08 3.617877525683311527e-09 1.971517113999199814e-10
1.010420737937741009e+01 5.192638876591030415e-07 2.907559894023849334e-08 3.617804912087085678e-09 1.971479589903827364e-10
1.013918393116299121e+01 5.192573076156515816e-07 2.907523053405422145e-08 3.617731795687264160e-09 1.971441805936653411e-10
1.017428155718318372e+01 5.192506819445406037e-07 2.907485957324880581e-08 3.617658173007725499e-09 1.971403760300485130e-10
1.020950067654649018e+01 5.192440103294186543e-07 2.907448604011017209e-08 3.617584040548379012e-09 1.971365451185736457e-10
1.024484170981219577e+01 5.192372924517401472e-07 2.907410991680346585e-08 3.617509394785021699e-09 1.971326876770341503e-10
1.028030507899538115e+01 5.192305279907528694e-07 2.907373118537023866e-08 3.617434232169159573e-09 1.971288035219672088e-10
1.031589120757197087e+01 5.192237166234808288e-07 2.907334982772756464e-08 3.617358549127857117e-09 1.971248924686451409e-10
1.035160052048378709e+01 5.192168580247089016e-07 2.907296582566715701e-08 3.617282342063548681e-09 1.971209543310659943e-10
1.038743344414361935e+01 5.192099518669685388e-07 2.907257916085452441e-08 3.617205607353888769e-09 1.971169889219461004e-10
1.042339040644032444e+01 5.192029978205206137e-07 2.907218981482809407e-08 3.617128341351569225e-09 1.971129960527101224e-10
1.045947183674393166e+01 5.191959955533411283e-07 2.907179776899834822e-08 3.617050540384160835e-09 1.971089755334828607e-10
1.049567816591076586e+01 5.191889447311043784e-07 2.907140300464688443e-08 3.616972200753928030e-09 1.971049271730801799e-10
1.053200982628860238e+01 5.191818450171673892e-07 2.907100550292558511e-08 3.616893318737668009e-09 1.971008507789998842e-10
1.056846725172182211e+01 5.191746960725539282e-07 2.907060524485567786e-08 3.616813890586528753e-09 1.970967461574131349e-10
1.060505087755659304e+01 5.191674975559381989e-07 2.907020221132685529e-08 3.616733912525835318e-09 1.970926131131546282e-10
1.064176114064606971e+01 5.191602491236285363e-07 2.906979638309634203e-08 3.616653380754913232e-09 1.970884514497141679e-10
1.067859847935561213e+01 5.191529504295508892e-07 2.906938774078798478e-08 3.616572291446912308e-09 1.970842609692269978e-10
1.071556333356801893e+01 5.191456011252329384e-07 2.906897626489132590e-08 3.616490640748623007e-09 1.970800414724647028e-10
1.075265614468877828e+01 5.191382008597873680e-07 2.906856193576072989e-08 3.616408424780309762e-09 1.970757927588261358e-10
1.078987735565133654e+01 5.191307492798935482e-07 2.906814473361430474e-08 3.616325639635504184e-09 1.970715146263271552e-10
1.082722741092239893e+01 5.191232460297829239e-07 2.906772463853311780e-08 3.616242281380849135e-09 1.970672068715920952e-10
1.086470675650721951e+01 5.191156907512212273e-07 2.906730163046016671e-08 3.616158346055900209e-09 1.970628692898440457e-10
1.090231583995493914e+01 5.191080830834907955e-07 2.906687568919941330e-08 3.616073829672941270e-09 1.970585016748946938e-10
1.094005511036394118e+01 5.191004226633740541e-07 2.906644679441485383e-08 3.615988728216804535e-09 1.970541038191352252e-10
1.097792501838718060e+01 5.190927091251356231e-07 2.906601492562952304e-08 3.615903037644672886e-09 1.970496755135263974e-10
1.101592601623759293e+01 5.190849421005057999e-07 2.906558006222455450e-08 3.615816753885904088e-09 1.970452165475888206e-10
1.105405855769348733e+01 5.190771212186620306e-07 2.906514218343816152e-08 3.615729872841830200e-09 1.970407267093931350e-10
1.109232309810396266e+01 5.190692461062122867e-07 2.906470126836467097e-08 3.615642390385568150e-09 1.970362057855499296e-10
1.113072009439434851e+01 5.190613163871755836e-07 2.906425729595347448e-08 3.615554302361831138e-09 1.970316535611998672e-10
1.116925000507165500e+01 5.190533316829657810e-07 2.906381024500813502e-08 3.615465604586728459e-09 1.970270698200035266e-10
1.120791329023005645e+01 5.190452916123725246e-07 2.906336009418521896e-08 3.615376292847573183e-09 1.970224543441314493e-10
1.124671041155637852e+01 5.190371957915444113e-07 2.906290682199348872e-08 3.615286362902696866e-09 1.970178069142540078e-10
1.128564183233561735e+01 5.190290438339674960e-07 2.906245040679260577e-08 3.615195810481220008e-09 1.970131273095304962e-10
1.132470801745646760e+01 5.190208353504516329e-07 2.906199082679240269e-08 3.615104631282896129e-09 1.970084153076000834e-10
1.136390943341687176e+01 5.190125699491073939e-07 2.906152806005156963e-08 3.615012820977869407e-09 1.970036706845698189e-10
1.140324654832959439e+01 5.190042472353297633e-07 2.906106208447677417e-08 3.614920375206497656e-09 1.969988932150051459e-10
1.144271983192781583e+01 5.189958668117799267e-07 2.906059287782161908e-08 3.614827289579154225e-09 1.969940826719200271e-10
1.148232975557073132e+01 5.189874282783638830e-07 2.906012041768542142e-08 3.614733559675993482e-09 1.969892388267642524e-10
1.152207679224918735e+01 5.189789312322153985e-07 2.905964468151232245e-08 3.614639181046775462e-09 1.969843614494147537e-10
1.156196141659132692e+01 5.189703752676765245e-07 2.905916564659014616e-08 3.614544149210643761e-09 1.969794503081640243e-10
1.160198410486825971e+01 5.189617599762767394e-07 2.905868329004922466e-08 3.614448459655912954e-09 1.969745051697089002e-10
1.164214533499974280e+01 5.189530849467162201e-07 2.905819758886149821e-08 3.614352107839874621e-09 1.969695257991407374e-10
1.168244558655989707e+01 5.189443497648436067e-07 2.905770851983927113e-08 3.614255089188569044e-09 1.969645119599335727e-10
1.172288534078292699e+01 5.189355540136378978e-07 2.905721605963414971e-08 3.614157399096582137e-09 1.969594634139333449e-10
1.176346508056886897e+01 5.189266972731875919e-07 2.905672018473591063e-08 3.614059032926824172e-09 1.969543799213466501e-10
1.180418529048935739e+01 5.189177791206709944e-07 2.905622087147141569e-08 3.613959986010317194e-09 1.969492612407296261e-10
1.184504645679341195e+01 5.189087991303366291e-07 2.905571809600345707e-08 3.613860253645980370e-09 1.969441071289768636e-10
1.188604906741324463e+01 5.188997568734821691e-07 2.905521183432965222e-08 3.613759831100408715e-09 1.969389173413100064e-10
1.192719361197008432e+01 5.188906519184341077e-07 2.905470206228124610e-08 3.613658713607645621e-09 1.969336916312658346e-10
1.196848058178002283e+01 5.188814838305279588e-07 2.905418875552199613e-08 3.613556896368977299e-09 1.969284297506854341e-10
1.200991046985988930e+01 5.188722521720866579e-07 2.905367188954704062e-08 3.613454374552696206e-09 1.969231314497023831e-10
1.205148377093312284e+01 5.188629565023995978e-07 2.905315143968165139e-08 3.613351143293876470e-09 1.969177964767308097e-10
1.209320098143569489e+01 5.188535963777027234e-07 2.905262738108012532e-08 3.613247197694155920e-09 1.969124245784540960e-10
1.213506259952202981e+01 5.188441713511562972e-07 2.905209968872457669e-08 3.613142532821504069e-09 1.969070154998129354e-10
1.217706912507095574e+01 5.188346809728241466e-07 2.905156833742375596e-08 3.613037143709988017e-09 1.969015689839931319e-10
1.221922105969166772e+01 5.188251247896520653e-07 2.905103330181182885e-08 3.612931025359553253e-09 1.968960847724142261e-10
1.226151890672973188e+01 5.188155023454457895e-07 2.905049455634714880e-08 3.612824172735773427e-09 1.968905626047165966e-10
1.230396317127307704e+01 5.188058131808504581e-07 2.904995207531113531e-08 3.612716580769640664e-09 1.968850022187504220e-10
1.234655436015804142e+01 5.187960568333272132e-07 2.904940583280690746e-08 3.612608244357300037e-09 1.968794033505620330e-10
1.238929298197541762e+01 5.187862328371327653e-07 2.904885580275820193e-08 3.612499158359849393e-09 1.968737657343836753e-10
1.243217954707652950e+01 5.187763407232955704e-07 2.904830195890799330e-08 3.612389317603065135e-09 1.968680891026189311e-10
1.247521456757932157e+01 5.187663800195944429e-07 2.904774427481731938e-08 3.612278716877177650e-09 1.968623731858313711e-10
1.251839855737447671e+01 5.187563502505358971e-07 2.904718272386400745e-08 3.612167350936636801e-09 1.968566177127322758e-10
1.256173203213155709e+01 5.187462509373320183e-07 2.904661727924142018e-08 3.612055214499856326e-09 1.968508224101674008e-10
1.260521550930515389e+01 5.187360815978757935e-07 2.904604791395710901e-08 3.611942302248971890e-09 1.968449870031042590e-10
1.264884950814107256e+01 5.187258417467206762e-07 2.904547460083163954e-08 3.611828608829598306e-09 1.968391112146198418e-10
1.269263454968252702e+01 5.187155308950557051e-07 2.904489731249721182e-08 3.611714128850581382e-09 1.968331947658875139e-10
1.273657115677637108e+01 5.187051485506830578e-07 2.904431602139637652e-08 3.611598856883738600e-09 1.968272373761636745e-10
1.278065985407933347e+01 5.186946942179932747e-07 2.904373069978072143e-08 3.611482787463616339e-09 1.968212387627751693e-10
1.282490116806427949e+01 5.186841673979437660e-07 2.904314131970957436e-08 3.611365915087236753e-09 1.968151986411058480e-10
1.286929562702652952e+01 5.186735675880332945e-07 2.904254785304862017e-08 3.611248234213836389e-09 1.968091167245835371e-10
1.291384376109009580e+01 5.186628942822784707e-07 2.904195027146862025e-08 3.611129739264613480e-09 1.968029927246664940e-10
1.295854610221410574e+01 5.186521469711909883e-07 2.904134854644404936e-08 3.611010424622478133e-09 1.967968263508307672e-10
1.300340318419908137e+01 5.186413251417507317e-07 2.904074264925167945e-08 3.610890284631771509e-09 1.967906173105552809e-10
1.304841554269334658e+01 5.186304282773833288e-07 2.904013255096926944e-08 3.610769313598021383e-09 1.967843653093093499e-10
1.309358371519941322e+01 5.186194558579348464e-07 2.903951822247417224e-08 3.610647505787673316e-09 1.967780700505387727e-10
1.313890824108040611e+01 5.186084073596477557e-07 2.903889963444196164e-08 3.610524855427823473e-09 1.967717312356520018e-10
1.318438966156650061e+01 5.185972822551349914e-07 2.903827675734501285e-08 3.610401356705955582e-09 1.967653485640062626e-10
1.323002851976137961e+01 5.185860800133546471e-07 2.903764956145107644e-08 3.610277003769664650e-09 1.967589217328933109e-10
1.327582536064873153e+01 5.185748000995865757e-07 2.903701801682193834e-08 3.610151790726400545e-09 1.967524504375262230e-10
1.332178073109874639e+01 5.185634419754041200e-07 2.903638209331190439e-08 3.610025711643176409e-09 1.967459343710243265e-10
1.336789517987465281e+01 5.185520050986506072e-07 2.903574176056639750e-08 3.609898760546305202e-09 1.967393732243992664e-10
1.341416925763926749e+01 5.185404889234134086e-07 2.903509698802056795e-08 3.609770931421130043e-09 1.967327666865410991e-10
1.346060351696157298e+01 5.185288928999960936e-07 2.903444774489771845e-08 3.609642218211727665e-09 1.967261144442031440e-10
1.350719851232331692e+01 5.185172164748949242e-07 2.903379400020799387e-08 3.609512614820655295e-09 1.967194161819885163e-10
1.355395480012562714e+01 5.185054590907699504e-07 2.903313572274673352e-08 3.609382115108639639e-09 1.967126715823340226e-10
1.360087293869566416e+01 5.184936201864205517e-07 2.903247288109313774e-08 3.609250712894315075e-09 1.967058803254970298e-10
1.364795348829328248e+01 5.184816991967568501e-07 2.903180544360863665e-08 3.609118401953925045e-09 1.966990420895391277e-10
1.369519701111772392e+01 5.184696955527745106e-07 2.903113337843552372e-08 3.608985176021043703e-09 1.966921565503126103e-10
1.374260407131432515e+01 5.184576086815256246e-07 2.903045665349527818e-08 3.608851028786281030e-09 1.966852233814442162e-10
1.379017523498126607e+01 5.184454380060945694e-07 2.902977523648721511e-08 3.608715953897002419e-09 1.966782422543215319e-10
1.383791107017631461e+01 5.184331829455671975e-07 2.902908909488681780e-08 3.608579944957018067e-09 1.966712128380762416e-10
1.388581214692362487e+01 5.184208429150045783e-07 2.902839819594418603e-08 3.608442995526299666e-09 1.966641347995694444e-10
1.393387903722053167e+01 5.184084173254158933e-07 2.902770250668259337e-08 3.608305099120687168e-09 1.966570078033766360e-10
1.398211231504438778e+01 5.183959055837284722e-07 2.902700199389676011e-08 3.608166249211573217e-09 1.966498315117713460e-10
1.403051255635941708e+01 5.183833070927620645e-07 2.902629662415142716e-08 3.608026439225625627e-09 1.966426055847105331e-10
1.407908033912358903e+01 5.183706212511985575e-07 2.902558636377966530e-08 3.607885662544468093e-09 1.966353296798181188e-10
1.412781624329552521e+01 5.183578474535527544e-07 2.902487117888123405e-08 3.607743912504373303e-09 1.966280034523689869e-10
1.417672085084142175e+01 5.183449850901465391e-07 2.902415103532112255e-08 3.607601182395972604e-09 1.966206265552741715e-10
1.422579474574199665e+01 5.183320335470761602e-07 2.902342589872776941e-08 3.607457465463929673e-09 1.966131986390632796e-10
1.427503851399946910e+01 5.183189922061861842e-07 2.902269573449153746e-08 3.607312754906645631e-09 1.966057193518700931e-10
1.432445274364454946e+01 5.183058604450375203e-07 2.902196050776295346e-08 3.607167043875929410e-09 1.965981883394146031e-10
1.437403802474346826e+01 5.182926376368793625e-07 2.902122018345113977e-08 3.607020325476693351e-09 1.965906052449875781e-10
1.442379494940501772e+01 5.182793231506192253e-07 2.902047472622214678e-08 3.606872592766640113e-09 1.965829697094344083e-10
1.447372411178762341e+01 5.182659163507910749e-07 2.901972410049715625e-08 3.606723838755925605e-09 1.965752813711373206e-10
1.452382610810644259e+01 5.182524165975289646e-07 2.901896827045097585e-08 3.606574056406864501e-09 1.965675398660002574e-10
1.457410153664047847e+01 5.182388232465323067e-07 2.901820720001014327e-08 3.606423238633584896e-09 1.965597448274310400e-10
1.462455099773972478e+01 5.182251356490376028e-07 2.901744085285132807e-08 3.606271378301709014e-09 1.965518958863243860e-10
1.467517509383234042e+01 5.182113531517867861e-07 2.901666919239954173e-08 3.606118468228026059e-09 1.965439926710453650e-10
1.472597442943183665e+01 5.181974750969972572e-07 2.901589218182648321e-08 3.605964501180174575e-09 1.965360348074126233e-10
1.477694961114429972e+01 5.181835008223283207e-07 2.901510978404864643e-08 3.605809469876285934e-09 1.965280219186799007e-10
1.482810124767563131e+01 5.181694296608515391e-07 2.901432196172564930e-08 3.605653366984667110e-09 1.965199536255197200e-10
1.487942994983882095e+01 5.181552609410188630e-07 2.901352867725850333e-08 3.605496185123469396e-09 1.965118295460059646e-10
1.493093633056123792e+01 5.181409939866295969e-07 2.901272989278767796e-08 3.605337916860332711e-09 1.965036492955953697e-10
1.498262100489194992e+01 5.181266281167996944e-07 2.901192557019144955e-08 3.605178554712061767e-09 1.964954124871110314e-10
1.503448459000906645e+01 5.181121626459270294e-07 2.901111567108393928e-08 3.605018091144265408e-09 1.964871187307231478e-10
1.508652770522710540e+01 5.180975968836619624e-07 2.901030015681343237e-08 3.604856518571034434e-09 1.964787676339328639e-10
1.513875097200442177e+01 5.180829301348713409e-07 2.900947898846044901e-08 3.604693829354573911e-09 1.964703588015526259e-10
1.519115501395054757e+01 5.180681616996079007e-07 2.900865212683591141e-08 3.604530015804860307e-09 1.964618918356886810e-10
1.524374045683375378e+01 5.180532908730750082e-07 2.900781953247925779e-08 3.604365070179293666e-09 1.964533663357230086e-10
1.529650792858839381e+01 5.180383169455947907e-07 2.900698116565664242e-08 3.604198984682342741e-09 1.964447818982946573e-10
1.534945805932253471e+01 5.180232392025724550e-07 2.900613698635890079e-08 3.604031751465177731e-09 1.964361381172807715e-10
1.540259148132535039e+01 5.180080569244644178e-07 2.900528695429982575e-08 3.603863362625327415e-09 1.964274345837789359e-10
1.545590882907479013e+01 5.179927693867427309e-07 2.900443102891411280e-08 3.603693810206306916e-09 1.964186708860875044e-10
1.550941073924507307e+01 5.179773758598608811e-07 2.900356916935548402e-08 3.603523086197262017e-09 1.964098466096872984e-10
1.556309785071432295e+01 5.179618756092189573e-07 2.900270133449472603e-08 3.603351182532593620e-09 1.964009613372221945e-10
1.561697080457219577e+01 5.179462678951288150e-07 2.900182748291775437e-08 3.603178091091594201e-09 1.963920146484799696e-10
1.567103024412753243e+01 5.179305519727789256e-07 2.900094757292361503e-08 3.603003803698082608e-09 1.963830061203734567e-10
1.572527681491603779e+01 5.179147270921987999e-07 2.900006156252250255e-08 3.602828312120018183e-09 1.963739353269205120e-10
1.577971116470799551e+01 5.178987924982237314e-07 2.899916940943383428e-08 3.602651608069145486e-09 1.963648018392253769e-10
1.583433394351599866e+01 5.178827474304582673e-07 2.899827107108411636e-08 3.602473683200589807e-09 1.963556052254578959e-10
1.588914580360271245e+01 5.178665911232406333e-07 2.899736650460502453e-08 3.602294529112503955e-09 1.963463450508349816e-10
1.594414739948866355e+01 5.178503228056048288e-07 2.899645566683126683e-08 3.602114137345658808e-09 1.963370208775992639e-10
1.599933938796005428e+01 5.178339417012466402e-07 2.899553851429864787e-08 3.601932499383085556e-09 1.963276322650005816e-10
1.605472242807661232e+01 5.178174470284841471e-07 2.899461500324189512e-08 3.601749606649663764e-09 1.963181787692746823e-10
1.611029718117944753e+01 5.178008380002220420e-07 2.899368508959264047e-08 3.601565450511744592e-09 1.963086599436234994e-10
1.616606431089896390e+01 5.177841138239134071e-07 2.899274872897728622e-08 3.601380022276755816e-09 1.962990753381943953e-10
1.622202448316277312e+01 5.177672737015220219e-07 2.899180587671490394e-08 3.601193313192798165e-09 1.962894245000595591e-10
1.627817836620364744e+01 5.177503168294851994e-07 2.899085648781513020e-08 3.601005314448263575e-09 1.962797069731958700e-10
1.633452663056750964e+01 5.177332423986748227e-07 2.898990051697602247e-08 3.600816017171420361e-09 1.962699222984634683e-10
1.639106994912143023e+01 5.177160495943585929e-07 2.898893791858185222e-08 3.600625412430012031e-09 1.962600700135847656e-10
1.644780899706166011e+01 5.176987375961628661e-07 2.898796864670102042e-08 3.600433491230860241e-09 1.962501496531238944e-10
1.650474445192170592e+01 5.176813055780311483e-07 2.898699265508379107e-08 3.600240244519446656e-09 1.962401607484648915e-10
1.656187699358040533e+01 5.176637527081873556e-07 2.898600989716015707e-08 3.600045663179505975e-09 1.962301028277906046e-10
1.661920730427005921e+01 5.176460781490939918e-07 2.898502032603757376e-08 3.599849738032612344e-09 1.962199754160609272e-10
1.667673606858456381e+01 5.176282810574142439e-07 2.898402389449875858e-08 3.599652459837763693e-09 1.962097780349916024e-10
1.673446397348760684e+01 5.176103605839705829e-07 2.898302055499945443e-08 3.599453819290961946e-09 1.961995102030319659e-10
1.679239170832084582e+01 5.175923158737049540e-07 2.898201025966612675e-08 3.599253807024789503e-09 1.961891714353429749e-10
1.685051996481215753e+01 5.175741460656379064e-07 2.898099296029372023e-08 3.599052413607985310e-09 1.961787612437754679e-10
1.690884943708389088e+01 5.175558502928276188e-07 2.897996860834338572e-08 3.598849629545025064e-09 1.961682791368478054e-10
1.696738082166115191e+01 5.175374276823288178e-07 2.897893715494007807e-08 3.598645445275674950e-09 1.961577246197232519e-10
1.702611481748013844e+01 5.175188773551514855e-07 2.897789855087037903e-08 3.598439851174578880e-09 1.961470971941878224e-10
1.708505212589646050e+01 5.175001984262185074e-07 2.897685274658002561e-08 3.598232837550805192e-09 1.961363963586272770e-10
1.714419345069353540e+01 5.174813900043237445e-07 2.897579969217161715e-08 3.598024394647422726e-09 1.961256216080045022e-10
1.720353949809098637e+01 5.174624511920902110e-07 2.897473933740223632e-08 3.597814512641051250e-09 1.961147724338367897e-10
1.726309097675307314e+01 5.174433810859268758e-07 2.897367163168105695e-08 3.597603181641419328e-09 1.961038483241720029e-10
